0000000000000000 
0000000000000001 
0000000000000011 
0000000000000100 
0000000000000110 
0000000000000111 
0000000000001000 
0000000000001010 
0000000000001011 
0000000000001101 
0000000000001110 
0000000000001111 
0000000000010001 
0000000000010010 
0000000000010011 
0000000000010101 
0000000000010110 
0000000000011000 
0000000000011001 
0000000000011010 
0000000000011100 
0000000000011101 
0000000000011111 
0000000000100000 
0000000000100001 
0000000000100011 
0000000000100100 
0000000000100110 
0000000000100111 
0000000000101000 
0000000000101010 
0000000000101011 
0000000000101100 
0000000000101110 
0000000000101111 
0000000000110001 
0000000000110010 
0000000000110011 
0000000000110101 
0000000000110110 
0000000000111000 
0000000000111001 
0000000000111010 
0000000000111100 
0000000000111101 
0000000000111111 
0000000001000000 
0000000001000001 
0000000001000011 
0000000001000100 
0000000001000101 
0000000001000111 
0000000001001000 
0000000001001010 
0000000001001011 
0000000001001100 
0000000001001110 
0000000001001111 
0000000001010001 
0000000001010010 
0000000001010011 
0000000001010101 
0000000010000010 
0000000010101111 
0000000011011101 
0000000100001010 
0000000100110111 
0000000101100100 
0000000110010010 
0000000110111111 
0000000111101100 
0000001000011001 
0000001001000111 
0000001001110100 
0000001010100001 
0000001011001111 
0000001011111100 
0000001100101001 
0000001101010110 
0000001110000100 
0000001110110001 
0000001111011110 
0000010000001100 
0000010000111001 
0000010001100110 
0000010010010011 
0000010011000001 
0000010011101110 
0000010100011011 
0000010101001000 
0000010101110110 
0000010110100011 
0000010111010000 
0000010111111110 
0000011000101011 
0000011001011000 
0000011010000101 
0000011010110011 
0000011011100000 
0000011100001101 
0000011100111010 
0000011101101000 
0000011110010101 
0000011111000010 
0000011111110000 
0000100000011101 
0000100001001010 
0000100001110111 
0000100010100101 
0000100011010010 
0000100011111111 
0000100100101101 
0000100101011010 
0000100110000111 
0000100110110100 
0000100111100010 
0000101000001111 
0000101000111100 
0000101001101001 
0000101010010111 
0000101011000100 
0000101011110001 
0000101100011111 
0000101101001100 
0000101101111001 
0000101110100110 
0000101111010100 
0000110000000001 
0000110000101110 
0000110001011011 
0000110010001001 
0000110010110110 
0000110011100011 
0000110100010001 
0000110100111110 
0000110100010001 
0000110011100011 
0000110010110110 
0000110010001001 
0000110001011011 
0000110000101110 
0000110000000001 
0000101111010100 
0000101110100110 
0000101101111001 
0000101101001100 
0000101100011111 
0000101011110001 
0000101011000100 
0000101010010111 
0000101001101001 
0000101000111100 
0000101000001111 
0000100111100010 
0000100110110100 
0000100110000111 
0000100101011010 
0000100100101101 
0000100011111111 
0000100011010010 
0000100010100101 
0000100001110111 
0000100001001010 
0000100000011101 
0000011111110000 
0000011111000010 
0000011110010101 
0000011101101000 
0000011100111010 
0000011100001101 
0000011011100000 
0000011010110011 
0000011010000101 
0000011001011000 
0000011000101011 
0000010111111110 
0000010111010000 
0000010110100011 
0000010101110110 
0000010101001000 
0000010100011011 
0000010011101110 
0000010011000001 
0000010010010011 
0000010001100110 
0000010000111001 
0000010000001100 
0000001111011110 
0000001110110001 
0000001110000100 
0000001101010110 
0000001100101001 
0000001011111100 
0000001011001111 
0000001010100001 
0000001001110100 
0000001001000111 
0000001000011001 
0000000111101100 
0000000110111111 
0000000110010010 
0000000101100100 
0000000100110111 
0000000100001010 
0000000011011101 
0000000010101111 
0000000010000010 
0000000001010101 
0000000001010100 
0000000001010011 
0000000001010010 
0000000001010001 
0000000001010000 
0000000001001111 
0000000001001110 
0000000001001101 
0000000001001100 
0000000001001011 
0000000001001011 
0000000001001010 
0000000001001001 
0000000001001000 
0000000001000111 
0000000001000110 
0000000001000101 
0000000001000100 
0000000001000011 
0000000001000010 
0000000001000001 
0000000001000000 
0000000000111111 
0000000000111110 
0000000000111101 
0000000000111101 
0000000000111100 
0000000000111011 
0000000000111010 
0000000000111001 
0000000000111000 
0000000000110111 
0000000000110110 
0000000000110101 
0000000000110100 
0000000000110011 
0000000000110010 
0000000000110001 
0000000000110000 
0000000000101111 
0000000000101111 
0000000000101110 
0000000000101101 
0000000000101100 
0000000000101011 
0000000000101010 
0000000000101001 
0000000000101000 
0000000000100111 
0000000000100110 
0000000000100101 
0000000000100100 
0000000000100011 
0000000000100010 
0000000000100010 
0000000000100001 
0000000000100000 
0000000000011111 
0000000000011110 
0000000000011101 
0000000000011100 
0000000000011011 
0000000000011010 
0000000000011001 
0000000000011000 
0000000000010111 
0000000000010110 
0000000000010101 
0000000000010100 
0000000000010100 
0000000000010011 
0000000000010010 
0000000000010001 
0000000000010000 
0000000000001111 
0000000000001110 
0000000000001101 
0000000000001100 
0000000000001011 
0000000000001010 
0000000000001001 
0000000000001000 
0000000000000111 
0000000000000111 
0000000000000110 
0000000000000101 
0000000000000100 
0000000000000011 
0000000000000010 
0000000000000001 
0000000000000000 
1111111101111101 
1111111011111010 
1111111001110111 
1111110111110100 
1111110101110001 
1111110011101110 
1111110001101011 
1111101111101000 
1111101101100101 
1111101011100010 
1111101001011111 
1111100111011100 
1111100101011001 
1111100011010110 
1111100001010011 
1111011111010000 
1111011101001101 
1111011011001011 
1111011001001000 
1111010111000101 
1111010101000010 
1111010010111111 
1111010111000000 
1111011011000010 
1111011111000100 
1111100011000101 
1111100111000111 
1111101011001000 
1111101111001010 
1111110011001100 
1111110111001101 
1111111011001111 
1111111111010001 
0000000011010010 
0000000111010100 
0000001011010101 
0000001111010111 
0000010011011001 
0000010111011010 
0000011011011100 
0000011111011110 
0000100011011111 
0000100111100001 
0000101011100010 
0000101111100100 
0000110011100110 
0000110111100111 
0000111011101001 
0000111111101011 
0001000011101100 
0001000111101110 
0001001011101111 
0001001111110001 
0001010011110011 
0001010111110100 
0001011011110110 
0001011111111000 
0001100011111001 
0001100111111011 
0001101011111100 
0001101111111110 
0001110100000000 
0001111000000001 
0001111100000011 
0010000000000101 
0010000100000110 
0010001000001000 
0010001100001001 
0010010000001011 
0010010100001101 
0010011000001110 
0010011100010000 
0010010110100000 
0010010000110000 
0010001011000001 
0010000101010001 
0001111111100001 
0001111001110001 
0001110100000001 
0001101110010010 
0001101000100010 
0001100010110010 
0001011101000010 
0001010111010010 
0001010001100011 
0001001011110011 
0001000110000011 
0001000000010011 
0000111010100011 
0000110100110100 
0000101111000100 
0000101001010100 
0000100011100100 
0000011101110100 
0000011000000101 
0000010010010101 
0000001100100101 
0000000110110101 
0000000001000101 
1111111011010110 
1111110101100110 
1111101111110110 
1111101010000110 
1111100100010111 
1111011110100111 
1111011000110111 
1111010011000111 
1111001101010111 
1111000111101000 
1111000001111000 
1110111100001000 
1110110110011000 
1110110000101000 
1110101010111001 
1110100101001001 
1110011111011001 
1110011001101001 
1110010011111001 
1110001110001010 
1110001000011010 
1110000010101010 
1101111100111010 
1110000010100111 
1110001000010100 
1110001110000000 
1110010011101101 
1110011001011010 
1110011111000111 
1110100100110100 
1110101010100000 
1110110000001101 
1110110101111010 
1110111011100111 
1111000001010011 
1111000111000000 
1111001100101101 
1111010010011010 
1111011000000111 
1111011101110011 
1111100011100000 
1111101001001101 
1111101110111010 
1111110100100110 
1111111010010011 
0000000000000000 
0000000000000001 
0000000000000010 
0000000000000011 
0000000000000100 
0000000000000101 
0000000000000110 
0000000000000111 
0000000000000111 
0000000000001000 
0000000000001001 
0000000000001010 
0000000000001011 
0000000000001100 
0000000000001101 
0000000000001110 
0000000000001111 
0000000000010000 
0000000000010001 
0000000000010010 
0000000000010011 
0000000000010100 
0000000000010100 
0000000000010101 
0000000000010110 
0000000000010111 
0000000000011000 
0000000000011001 
0000000000011010 
0000000000011011 
0000000000011100 
0000000000011101 
0000000000011110 
0000000000011111 
0000000000100000 
0000000000100001 
0000000000100010 
0000000000100010 
0000000000100011 
0000000000100100 
0000000000100101 
0000000000100110 
0000000000100111 
0000000000101000 
0000000000101001 
0000000000101010 
0000000000101011 
0000000000101100 
0000000000101101 
0000000000101110 
0000000000101111 
0000000000101111 
0000000000110000 
0000000000110001 
0000000000110010 
0000000000110011 
0000000000110100 
0000000000110101 
0000000000110110 
0000000000110111 
0000000000111000 
0000000000111001 
0000000000111010 
0000000000111011 
0000000000111100 
0000000000111101 
0000000000111101 
0000000000111110 
0000000000111111 
0000000001000000 
0000000001000001 
0000000001000010 
0000000001000011 
0000000001000100 
0000000001000101 
0000000001000110 
0000000001000111 
0000000001001000 
0000000001001001 
0000000001001010 
0000000001001011 
0000000001001011 
0000000001001100 
0000000001001101 
0000000001001110 
0000000001001111 
0000000001010000 
0000000001010001 
0000000001010010 
0000000001010011 
0000000001010100 
0000000001010101 
0000000001010110 
0000000001010111 
0000000001011000 
0000000001011000 
0000000001011001 
0000000001011010 
0000000001011011 
0000000001011100 
0000000001011101 
0000000001011110 
0000000001011111 
0000000001100000 
0000000001100001 
0000000001100010 
0000000001100011 
0000000001100100 
0000000001100101 
0000000001100110 
0000000001100110 
0000000001100111 
0000000001101000 
0000000001101001 
0000000001101010 
0000000001101011 
0000000001101100 
0000000001101101 
0000000001101110 
0000000001101111 
0000000001110000 
0000000001110001 
0000000001110010 
0000000001110011 
0000000001110011 
0000000001110100 
0000000001110101 
0000000001110110 
0000000001110111 
0000000001111000 
0000000001111001 
0000000001111010 
0000000001111011 
0000000001111100 
0000000001111101 
0000000001111110 
0000000001111111 
0000000010000000 
0000000010000001 
0000000010000001 
0000000010000010 
0000000010000011 
0000000010000100 
0000000010000101 
0000000010000110 
0000000010000111 
0000000010001000 
0000000010001001 
0000000010001010 
0000000010001011 
0000000010001100 
0000000010001101 
0000000010001110 
0000000010001110 
0000000010001111 
0000000010010000 
0000000010010001 
0000000010010010 
0000000010010011 
0000000010010100 
0000000010010101 
0000000010010110 
0000000010010111 
0000000010011000 
0000000010011001 
0000000010011010 
0000000010011011 
0000000010011100 
0000000010011100 
0000000010011101 
0000000010011110 
0000000010011111 
0000000010100000 
0000000010100001 
0000000010100010 
0000000010100011 
0000000010100100 
0000000010100101 
0000000010100110 
0000000010100111 
0000000010101000 
0000000010101001 
0000000010101001 
0000000011000000 
0000000011010110 
0000000011101100 
0000000100000010 
0000000100011000 
0000000100101110 
0000000101000100 
0000000101011010 
0000000101110000 
0000000110000110 
0000000110011100 
0000000110110010 
0000000111001000 
0000000111011110 
0000000111110100 
0000001000001010 
0000001000100000 
0000001000110111 
0000001001001101 
0000001001100011 
0000001001111001 
0000001010001111 
0000001010100101 
0000001010111011 
0000001011010001 
0000001011100111 
0000001011111101 
0000001100010011 
0000001100101001 
0000001100111111 
0000001101010101 
0000001101101011 
0000001110000001 
0000001110010111 
0000001110101101 
0000001111000100 
0000001111011010 
0000001111110000 
0000010000000110 
0000010000011100 
0000010000110010 
0000010001001000 
0000010001011110 
0000010001110100 
0000010010001010 
0000010010100000 
0000010010110110 
0000010011001100 
0000010011100010 
0000010011111000 
0000010100001110 
0000010100100100 
0000010100111011 
0000010101010001 
0000010101100111 
0000010101111101 
0000010110010011 
0000010110101001 
0000010110111111 
0000010111010101 
0000010111101011 
0000011000000001 
0000011000010111 
0000011000101101 
0000011001000011 
0000011001011001 
0000011001101111 
0000011010000101 
0000011010011011 
0000011010110001 
0000011011001000 
0000011011011110 
0000011011110100 
0000011011011101 
0000011011000111 
0000011010110001 
0000011010011010 
0000011010000100 
0000011001101101 
0000011001010111 
0000011001000001 
0000011000101010 
0000011000010100 
0000010111111110 
0000010111100111 
0000010111010001 
0000010110111011 
0000010110100100 
0000010110001110 
0000010101110111 
0000010101100001 
0000010101001011 
0000010100110100 
0000010100011110 
0000010100001000 
0000010011110001 
0000010011011011 
0000010011000101 
0000010010101110 
0000010010011000 
0000010010000001 
0000010001101011 
0000010001010101 
0000010000111110 
0000010000101000 
0000010000010010 
0000001111111011 
0000001111100101 
0000001111001111 
0000001110111000 
0000001110100010 
0000001110001011 
0000001101110101 
0000001101011111 
0000001101001000 
0000001100110010 
0000001100011100 
0000001100000101 
0000001011101111 
0000001011011001 
0000001011000010 
0000001010101100 
0000001010010101 
0000001001111111 
0000001001101001 
0000001001010010 
0000001000111100 
0000001000100110 
0000001000001111 
0000000111111001 
0000000111100011 
0000000111001100 
0000000110110110 
0000000110011111 
0000000110001001 
0000000101110011 
0000000101011100 
0000000101000110 
0000000100110000 
0000000100011001 
0000000100000011 
0000000011101101 
0000000011010110 
0000000011000000 
0000000010101001 
0000000010100101 
0000000010100001 
0000000010011101 
0000000010011001 
0000000010010101 
0000000010010001 
0000000010001101 
0000000010001000 
0000000010000100 
0000000010000000 
0000000001111100 
0000000001111000 
0000000001110100 
0000000001110000 
0000000001101011 
0000000001100111 
0000000001100011 
0000000001011111 
0000000001011011 
0000000001010111 
0000000001010011 
0000000001001111 
0000000001001010 
0000000001000110 
0000000001000010 
0000000000111110 
0000000000111010 
0000000000110110 
0000000000110010 
0000000000101101 
0000000000101001 
0000000000100101 
0000000000100001 
0000000000011101 
0000000000011001 
0000000000010101 
0000000000010001 
0000000000001100 
0000000000001000 
0000000000000100 
0000000000000000 
0000000000000000 
0000000000000000 
0000000000000000 
0000000000000000 
0000000000000000 
0000000000000000 
0000000000000000 
0000000000000000 
0000000000000000 
0000000000000000 
0000000000000000 
0000000000000000 
0000000000000000 
0000000000000000 
0000000000000000 
0000000000000000 
0000000000000000 
0000000000000000 
0000000000000000 
0000000000000000 
0000000000000000 
0000000000000000 
0000000000000000 
0000000000000000 
0000000000000000 
0000000000000000 
0000000000000000 
0000000000000000 
0000000000000000 
0000000000000000 
0000000000000000 
0000000000000000 
0000000000000000 
0000000000000000 
0000000000000000 
0000000000000000 
0000000000000000 
0000000000000000 
0000000000000000 
0000000000000000 
0000000000000000 
0000000000000000 
0000000000000000 
0000000000000000 
0000000000000000 
0000000000000000 
0000000000000000 
0000000000000000 
0000000000000000 
0000000000000000 
0000000000000000 
0000000000000000 
0000000000000000 
0000000000000000 
0000000000000000 
0000000000000000 
0000000000000000 
0000000000000000 
0000000000000000 
0000000000000000 
0000000000000000 
0000000000000000 
0000000000000000 
0000000000000000 
0000000000000000 
0000000000000000 
0000000000000000 
0000000000000000 
0000000000000000 
0000000000000000 
0000000000000000 
0000000000000000 
0000000000000000 
0000000000000000 
0000000000000000 
0000000000000000 
0000000000000000 
0000000000000000 
0000000000000000 
0000000000000000 
0000000000000000 
0000000000000000 
0000000000000000 
0000000000000000 
0000000000000000 
0000000000000000 
0000000000000000 
0000000000000000 
0000000000000000 
0000000000000000 
0000000000000000 
0000000000000000 
0000000000000000 
0000000000000000 
0000000000000000 
0000000000000000 
0000000000000000 
0000000000000000 
0000000000000000 
0000000000000000 
0000000000000000 
0000000000000000 
0000000000000000 
0000000000000000 
0000000000000000 
0000000000000000 
0000000000000000 
0000000000000000 
0000000000000000 
0000000000000000 
0000000000000000 
0000000000000000 
0000000000000000 
0000000000000000 
0000000000000000 
0000000000000000 
0000000000000000 
0000000000000000 
0000000000000000 
0000000000000000 
0000000000000000 
0000000000000000 
0000000000000000 
0000000000000000 
0000000000000000 
0000000000000000 
0000000000000000 
0000000000000000 
0000000000000000 
0000000000000000 
0000000000000000 
0000000000000000 
0000000000000000 
0000000000000000 
0000000000000000 
0000000000000000 
0000000000000000 
0000000000000000 
0000000000000000 
0000000000000000 
0000000000000000 
0000000000000000 
0000000000000000 
0000000000000000 
0000000000000000 
0000000000000000 
0000000000000000 
0000000000000000 
0000000000000000 
0000000000000000 
0000000000000000 
0000000000000000 
0000000000000000 
0000000000000000 
0000000000000000 
0000000000000000 
0000000000000000 
0000000000000000 
0000000000000000 
0000000000000000 
0000000000000000 
0000000000000000 
0000000000000000 
0000000000000000 
0000000000000000 
0000000000000000 
0000000000000000 
0000000000000000 
0000000000000000 
0000000000000000 
0000000000000000 
0000000000000000 
0000000000000000 
0000000000000000 
0000000000000000 
0000000000000000 
0000000000000000 
0000000000000000 
0000000000000000 
0000000000000000 
0000000000000000 
0000000000000000 
0000000000000000 
0000000000000000 
0000000000000000 
0000000000000000 
0000000000000000 
0000000000000000 
